central_density,radius,mass
1.000000e+14,2.468047e+06,1.632507e+32
1.100000e+14,2.393200e+06,1.635487e+32
1.200000e+14,2.326844e+06,1.638139e+32
1.300000e+14,2.267421e+06,1.640518e+32
1.400000e+14,2.213751e+06,1.642667e+32
1.500000e+14,2.164923e+06,1.644620e+32
1.600000e+14,2.067879e+06,1.651617e+32
1.700000e+14,1.953320e+06,1.672665e+32
1.800000e+14,1.837242e+06,1.711623e+32
1.900000e+14,1.725793e+06,1.770587e+32
2.000000e+14,1.624459e+06,1.849180e+32
2.100000e+14,1.535799e+06,1.945678e+32
2.200000e+14,1.460007e+06,2.057978e+32
2.300000e+14,1.394971e+06,2.188661e+32
2.400000e+14,1.340534e+06,2.333420e+32
2.500000e+14,1.295482e+06,2.486524e+32
2.600000e+14,1.257292e+06,2.657283e+32
2.700000e+14,1.225593e+06,2.833704e+32
2.800000e+14,1.198939e+06,3.022778e+32
2.900000e+14,1.176602e+06,3.222895e+32
3.000000e+14,1.157555e+06,3.421588e+32
3.100000e+14,1.141897e+06,3.642804e+32
3.200000e+14,1.128300e+06,3.860795e+32
3.300000e+14,1.116913e+06,4.089517e+32
3.400000e+14,1.107459e+06,4.328406e+32
3.500000e+14,1.099392e+06,4.572049e+32
3.600000e+14,1.092468e+06,4.820133e+32
3.700000e+14,1.087082e+06,5.081410e+32
3.800000e+14,1.082174e+06,5.341536e+32
3.900000e+14,1.078206e+06,5.609397e+32
4.000000e+14,1.074458e+06,5.875696e+32
4.100000e+14,1.072018e+06,6.157584e+32
4.200000e+14,1.069327e+06,6.433006e+32
4.300000e+14,1.067770e+06,6.723088e+32
4.400000e+14,1.066126e+06,7.010508e+32
4.500000e+14,1.065190e+06,7.307467e+32
4.600000e+14,1.064080e+06,7.601338e+32
4.700000e+14,1.063573e+06,7.903965e+32
4.800000e+14,1.062838e+06,8.203234e+32
4.900000e+14,1.062879e+06,8.514376e+32
5.000000e+14,1.062886e+06,8.825422e+32
5.100000e+14,1.062519e+06,9.198245e+32
5.200000e+14,1.063104e+06,9.601226e+32
5.300000e+14,1.063720e+06,1.001151e+33
5.400000e+14,1.064374e+06,1.042861e+33
5.500000e+14,1.065483e+06,1.085970e+33
5.600000e+14,1.066389e+06,1.129401e+33
5.700000e+14,1.067704e+06,1.173971e+33
5.800000e+14,1.068997e+06,1.219136e+33
5.900000e+14,1.070447e+06,1.264957e+33
6.000000e+14,1.072038e+06,1.311640e+33
6.100000e+14,1.073755e+06,1.359161e+33
6.200000e+14,1.075381e+06,1.406694e+33
6.300000e+14,1.077282e+06,1.455430e+33
6.400000e+14,1.078872e+06,1.503325e+33
6.500000e+14,1.080705e+06,1.552361e+33
6.600000e+14,1.082311e+06,1.601675e+33
6.700000e+14,1.084105e+06,1.651556e+33
6.800000e+14,1.085720e+06,1.700788e+33
6.900000e+14,1.087691e+06,1.751460e+33
7.000000e+14,1.089349e+06,1.801416e+33
7.100000e+14,1.090749e+06,1.851091e+33
7.200000e+14,1.092409e+06,1.901365e+33
7.300000e+14,1.094044e+06,1.951626e+33
7.400000e+14,1.095519e+06,2.001534e+33
7.500000e+14,1.096912e+06,2.051757e+33
7.600000e+14,1.098491e+06,2.102160e+33
7.700000e+14,1.099567e+06,2.150666e+33
7.800000e+14,1.100980e+06,2.200789e+33
7.900000e+14,1.102202e+06,2.250143e+33
8.000000e+14,1.103225e+06,2.298617e+33
8.100000e+14,1.104345e+06,2.346700e+33
8.200000e+14,1.105383e+06,2.395526e+33
8.300000e+14,1.106307e+06,2.443464e+33
8.400000e+14,1.107104e+06,2.490391e+33
8.500000e+14,1.107894e+06,2.537325e+33
8.600000e+14,1.108513e+06,2.583929e+33
8.700000e+14,1.109164e+06,2.629672e+33
8.800000e+14,1.109898e+06,2.676484e+33
8.900000e+14,1.110231e+06,2.720505e+33
9.000000e+14,1.110825e+06,2.765937e+33
9.100000e+14,1.111157e+06,2.809696e+33
9.200000e+14,1.111219e+06,2.851671e+33
9.300000e+14,1.111767e+06,2.896372e+33
9.400000e+14,1.111774e+06,2.937612e+33
9.500000e+14,1.111826e+06,2.978606e+33
9.600000e+14,1.111776e+06,3.019026e+33
9.700000e+14,1.111869e+06,3.060310e+33
9.800000e+14,1.111757e+06,3.099804e+33
9.900000e+14,1.111614e+06,3.138808e+33
1.000000e+15,1.111277e+06,3.176077e+33
1.010000e+15,1.111164e+06,3.213603e+33
1.020000e+15,1.110650e+06,3.247622e+33
1.030000e+15,1.110302e+06,3.283275e+33
1.040000e+15,1.109888e+06,3.317442e+33
1.050000e+15,1.109536e+06,3.352082e+33
1.060000e+15,1.108792e+06,3.383755e+33
1.070000e+15,1.108227e+06,3.416094e+33
1.080000e+15,1.107541e+06,3.446906e+33
1.090000e+15,1.106866e+06,3.478031e+33
1.000000e+15,1.111277e+06,3.176077e+33
1.010000e+15,1.111164e+06,3.213603e+33
1.020000e+15,1.110650e+06,3.247622e+33
1.030000e+15,1.110302e+06,3.283275e+33
1.040000e+15,1.109888e+06,3.317442e+33
1.050000e+15,1.109536e+06,3.352082e+33
1.060000e+15,1.108792e+06,3.383755e+33
1.070000e+15,1.108227e+06,3.416094e+33
1.080000e+15,1.107541e+06,3.446906e+33
1.090000e+15,1.106866e+06,3.478031e+33
1.100000e+15,1.106074e+06,3.507630e+33
1.110000e+15,1.105343e+06,3.537662e+33
1.120000e+15,1.104498e+06,3.566138e+33
1.130000e+15,1.103719e+06,3.595040e+33
1.140000e+15,1.102722e+06,3.622143e+33
1.150000e+15,1.101941e+06,3.649998e+33
1.160000e+15,1.100952e+06,3.676142e+33
1.170000e+15,1.099806e+06,3.700814e+33
1.180000e+15,1.098907e+06,3.726832e+33
1.190000e+15,1.097723e+06,3.750338e+33
1.200000e+15,1.096606e+06,3.774229e+33
1.210000e+15,1.095431e+06,3.796880e+33
1.220000e+15,1.094404e+06,3.820676e+33
1.230000e+15,1.093106e+06,3.842053e+33
1.240000e+15,1.091840e+06,3.862979e+33
1.250000e+15,1.090633e+06,3.884247e+33
1.260000e+15,1.089294e+06,3.904110e+33
1.270000e+15,1.088023e+06,3.923666e+33
1.280000e+15,1.086658e+06,3.942694e+33
1.290000e+15,1.085279e+06,3.961024e+33
1.300000e+15,1.084116e+06,3.980625e+33
1.310000e+15,1.082714e+06,3.998088e+33
1.320000e+15,1.081300e+06,4.015128e+33
1.330000e+15,1.079876e+06,4.031675e+33
1.340000e+15,1.078443e+06,4.047741e+33
1.350000e+15,1.076996e+06,4.063298e+33
1.360000e+15,1.075333e+06,4.077119e+33
1.370000e+15,1.073876e+06,4.091884e+33
1.380000e+15,1.072338e+06,4.106139e+33
1.390000e+15,1.070868e+06,4.120218e+33
1.400000e+15,1.069386e+06,4.133610e+33
1.410000e+15,1.067799e+06,4.146107e+33
1.420000e+15,1.066274e+06,4.158811e+33
1.430000e+15,1.064777e+06,4.171166e+33
1.440000e+15,1.063176e+06,4.182432e+33
1.450000e+15,1.061504e+06,4.193173e+33
1.460000e+15,1.059992e+06,4.204312e+33
1.470000e+15,1.058388e+06,4.214703e+33
1.480000e+15,1.056841e+06,4.225161e+33
1.490000e+15,1.055126e+06,4.233875e+33
1.500000e+15,1.053546e+06,4.243684e+33
1.510000e+15,1.051928e+06,4.252478e+33
1.520000e+15,1.050375e+06,4.261643e+33
1.530000e+15,1.048662e+06,4.269150e+33
1.540000e+15,1.047082e+06,4.277745e+33
1.550000e+15,1.045465e+06,4.285363e+33
1.560000e+15,1.043899e+06,4.293015e+33
1.570000e+15,1.042142e+06,4.299494e+33
1.580000e+15,1.040532e+06,4.306368e+33
1.590000e+15,1.038974e+06,4.313272e+33
1.600000e+15,1.037223e+06,4.318888e+33
1.610000e+15,1.035615e+06,4.324890e+33
1.620000e+15,1.033881e+06,4.329639e+33
1.630000e+15,1.032307e+06,4.335535e+33
1.640000e+15,1.030678e+06,4.340672e+33
1.650000e+15,1.028942e+06,4.344973e+33
1.660000e+15,1.027346e+06,4.349658e+33
1.670000e+15,1.025823e+06,4.354948e+33
1.680000e+15,1.024097e+06,4.358526e+33
1.690000e+15,1.022483e+06,4.362428e+33
1.700000e+15,1.020765e+06,4.365550e+33
1.710000e+15,1.019194e+06,4.369256e+33
1.720000e+15,1.017511e+06,4.371992e+33
1.730000e+15,1.015887e+06,4.374962e+33
1.740000e+15,1.014234e+06,4.377712e+33
1.750000e+15,1.012619e+06,4.380272e+33
1.760000e+15,1.011119e+06,4.383353e+33
1.770000e+15,1.009436e+06,4.385038e+33
1.780000e+15,1.007880e+06,4.387486e+33
1.790000e+15,1.006213e+06,4.388916e+33
1.800000e+15,1.004651e+06,4.390665e+33
1.810000e+15,1.003014e+06,4.392090e+33
1.820000e+15,1.001468e+06,4.393606e+33
1.830000e+15,9.998192e+05,4.394241e+33
1.840000e+15,9.982974e+05,4.395659e+33
1.850000e+15,9.966733e+05,4.396214e+33
1.860000e+15,9.950189e+05,4.396464e+33
1.870000e+15,9.934806e+05,4.397154e+33
1.880000e+15,9.918851e+05,4.397063e+33
1.890000e+15,9.903719e+05,4.397698e+33
1.900000e+15,9.887576e+05,4.397491e+33
1.910000e+15,9.872802e+05,4.397891e+33
1.920000e+15,9.857024e+05,4.397463e+33
1.930000e+15,9.842378e+05,4.397600e+33
1.940000e+15,9.826740e+05,4.396923e+33
1.950000e+15,9.812225e+05,4.396811e+33
1.960000e+15,9.796041e+05,4.395505e+33
1.970000e+15,9.780986e+05,4.394773e+33
1.980000e+15,9.766099e+05,4.393990e+33
1.990000e+15,9.751134e+05,4.393265e+33
2.000000e+15,9.736973e+05,4.392596e+33
2.010000e+15,9.721169e+05,4.390769e+33
2.020000e+15,9.706484e+05,4.389523e+33
2.030000e+15,9.691955e+05,4.388219e+33
2.040000e+15,9.677196e+05,4.386738e+33
2.050000e+15,9.663565e+05,4.385849e+33
2.060000e+15,9.648103e+05,4.383539e+33
2.070000e+15,9.633775e+05,4.381831e+33
2.080000e+15,9.619573e+05,4.380057e+33
2.090000e+15,9.605197e+05,4.378157e+33
2.100000e+15,9.591938e+05,4.376844e+33
2.110000e+15,9.576883e+05,4.374169e+33
2.120000e+15,9.562542e+05,4.372017e+33
2.130000e+15,9.549127e+05,4.369939e+33
2.140000e+15,9.535342e+05,4.367955e+33
2.150000e+15,9.521003e+05,4.365325e+33
2.160000e+15,9.507423e+05,4.362986e+33
2.170000e+15,9.493779e+05,4.360678e+33
2.180000e+15,9.479780e+05,4.358003e+33
2.190000e+15,9.466632e+05,4.355518e+33
2.200000e+15,9.452934e+05,4.352875e+33
2.210000e+15,9.440518e+05,4.350828e+33
2.220000e+15,9.426361e+05,4.347523e+33
2.230000e+15,9.412905e+05,4.344725e+33
2.240000e+15,9.400720e+05,4.342519e+33
2.250000e+15,9.386806e+05,4.339078e+33
2.260000e+15,9.373590e+05,4.336140e+33
2.270000e+15,9.361636e+05,4.333789e+33
2.280000e+15,9.347965e+05,4.330226e+33
2.290000e+15,9.334987e+05,4.327162e+33
2.300000e+15,9.323263e+05,4.324680e+33
2.310000e+15,9.309833e+05,4.321007e+33
2.320000e+15,9.297092e+05,4.317829e+33
2.330000e+15,9.285595e+05,4.315227e+33
2.340000e+15,9.272403e+05,4.311457e+33
2.350000e+15,9.259897e+05,4.308178e+33
2.360000e+15,9.248625e+05,4.305467e+33
2.370000e+15,9.235671e+05,4.301611e+33
2.380000e+15,9.223399e+05,4.298242e+33
2.390000e+15,9.212351e+05,4.295434e+33
2.400000e+15,9.199634e+05,4.291503e+33
2.410000e+15,9.187791e+05,4.288292e+33
2.420000e+15,9.175602e+05,4.284578e+33
2.430000e+15,9.164103e+05,4.281134e+33
2.440000e+15,9.152671e+05,4.277876e+33
2.450000e+15,9.140713e+05,4.274099e+33
2.460000e+15,9.129436e+05,4.270588e+33
2.470000e+15,9.117651e+05,4.266980e+33
2.480000e+15,9.106143e+05,4.263379e+33
2.490000e+15,9.095837e+05,4.260325e+33
2.500000e+15,9.083885e+05,4.256202e+33
2.510000e+15,9.072700e+05,4.252665e+33
2.520000e+15,9.061367e+05,4.248883e+33
2.530000e+15,9.050605e+05,4.245250e+33
2.540000e+15,9.039917e+05,4.241807e+33
2.550000e+15,9.028707e+05,4.237873e+33
2.560000e+15,9.018556e+05,4.234651e+33
2.570000e+15,9.007119e+05,4.230443e+33
2.580000e+15,8.996346e+05,4.226698e+33
2.590000e+15,8.986751e+05,4.223485e+33
2.600000e+15,8.975533e+05,4.219255e+33
2.610000e+15,8.965173e+05,4.215703e+33
2.620000e+15,8.954466e+05,4.211704e+33
2.630000e+15,8.944609e+05,4.208180e+33
2.640000e+15,8.933873e+05,4.204144e+33
2.650000e+15,8.923595e+05,4.200342e+33
2.660000e+15,8.914484e+05,4.197061e+33
2.670000e+15,8.903761e+05,4.192794e+33
2.680000e+15,8.893891e+05,4.189192e+33
2.690000e+15,8.883672e+05,4.185158e+33
2.700000e+15,8.874494e+05,4.181807e+33
2.710000e+15,8.864043e+05,4.177528e+33
2.720000e+15,8.854245e+05,4.173697e+33
2.730000e+15,8.845600e+05,4.170377e+33
2.740000e+15,8.835186e+05,4.166075e+33
2.750000e+15,8.825958e+05,4.162475e+33
2.760000e+15,8.816209e+05,4.158431e+33
2.770000e+15,8.807492e+05,4.155055e+33
2.780000e+15,8.797507e+05,4.150778e+33
2.790000e+15,8.788372e+05,4.147151e+33
2.800000e+15,8.778883e+05,4.143110e+33
2.810000e+15,8.770022e+05,4.139315e+33
2.820000e+15,8.761246e+05,4.135712e+33
2.830000e+15,8.751619e+05,4.131634e+33
2.840000e+15,8.743680e+05,4.128302e+33
2.850000e+15,8.734146e+05,4.124047e+33
2.860000e+15,8.725458e+05,4.120430e+33
2.870000e+15,8.716414e+05,4.116412e+33
2.880000e+15,8.708393e+05,4.113044e+33
2.890000e+15,8.699107e+05,4.108807e+33
2.900000e+15,8.690666e+05,4.105204e+33
2.910000e+15,8.681865e+05,4.101203e+33
2.920000e+15,8.673680e+05,4.097442e+33
2.930000e+15,8.665583e+05,4.093873e+33
2.940000e+15,8.656637e+05,4.089847e+33
2.950000e+15,8.649362e+05,4.086547e+33
2.960000e+15,8.640498e+05,4.082356e+33
2.970000e+15,8.632475e+05,4.078787e+33
2.980000e+15,8.624093e+05,4.074832e+33
2.990000e+15,8.616725e+05,4.071511e+33
3.000000e+15,8.608094e+05,4.067349e+33
3.010000e+15,8.600303e+05,4.063807e+33
3.020000e+15,8.592151e+05,4.059881e+33
3.030000e+15,8.584601e+05,4.056189e+33
3.040000e+15,8.577142e+05,4.052688e+33
3.050000e+15,8.568997e+05,4.048767e+33
3.060000e+15,8.562183e+05,4.045512e+33
3.070000e+15,8.553947e+05,4.041413e+33
3.080000e+15,8.546549e+05,4.037923e+33
3.090000e+15,8.538787e+05,4.034059e+33
3.100000e+15,8.532032e+05,4.030815e+33
3.110000e+15,8.524013e+05,4.026753e+33
3.120000e+15,8.516833e+05,4.023299e+33
3.130000e+15,8.509285e+05,4.019473e+33
3.140000e+15,8.502330e+05,4.015875e+33
3.150000e+15,8.495468e+05,4.012467e+33
3.160000e+15,8.488080e+05,4.008673e+33
3.170000e+15,8.481693e+05,4.005488e+33
3.180000e+15,8.474043e+05,4.001502e+33
3.190000e+15,8.467229e+05,3.998113e+33
3.200000e+15,8.460046e+05,3.994360e+33
3.210000e+15,8.453867e+05,3.991216e+33
3.220000e+15,8.446419e+05,3.987273e+33
3.230000e+15,8.439807e+05,3.983925e+33
3.240000e+15,8.433884e+05,3.980657e+33
3.250000e+15,8.426427e+05,3.976730e+33
3.260000e+15,8.420124e+05,3.973434e+33
3.270000e+15,8.413290e+05,3.969761e+33
3.280000e+15,8.407455e+05,3.966686e+33
3.290000e+15,8.400351e+05,3.962826e+33
3.300000e+15,8.394083e+05,3.959555e+33
3.310000e+15,8.387441e+05,3.955927e+33
3.320000e+15,8.381798e+05,3.952897e+33
3.330000e+15,8.375410e+05,3.949301e+33
3.340000e+15,8.368590e+05,3.945670e+33
3.350000e+15,8.363403e+05,3.942710e+33
3.360000e+15,8.356629e+05,3.938938e+33
3.370000e+15,8.350688e+05,3.935746e+33
3.380000e+15,8.344371e+05,3.932204e+33
3.390000e+15,8.339051e+05,3.929252e+33
3.400000e+15,8.332453e+05,3.925527e+33
3.410000e+15,8.326693e+05,3.922383e+33
3.420000e+15,8.321609e+05,3.919316e+33
3.430000e+15,8.315148e+05,3.915633e+33
3.440000e+15,8.309521e+05,3.912524e+33
3.450000e+15,8.303515e+05,3.909070e+33
3.460000e+15,8.298503e+05,3.906199e+33
3.470000e+15,8.292211e+05,3.902565e+33
3.480000e+15,8.286755e+05,3.899505e+33
3.490000e+15,8.281973e+05,3.896522e+33
3.500000e+15,8.275652e+05,3.892910e+33
3.510000e+15,8.270483e+05,3.889907e+33
3.520000e+15,8.264773e+05,3.886542e+33
3.530000e+15,8.260057e+05,3.883755e+33
3.540000e+15,8.254055e+05,3.880213e+33
3.550000e+15,8.248891e+05,3.877240e+33
3.560000e+15,8.244397e+05,3.874343e+33
3.570000e+15,8.238521e+05,3.870843e+33
3.580000e+15,8.233479e+05,3.867908e+33
3.590000e+15,8.228051e+05,3.864633e+33
3.600000e+15,8.223616e+05,3.861932e+33
3.610000e+15,8.217892e+05,3.858482e+33
3.620000e+15,8.213007e+05,3.855598e+33
3.630000e+15,8.208790e+05,3.852788e+33
3.640000e+15,8.203184e+05,3.849381e+33
3.650000e+15,8.198416e+05,3.846534e+33
3.660000e+15,8.193255e+05,3.843350e+33
3.670000e+15,8.189091e+05,3.840736e+33
3.680000e+15,8.184160e+05,3.837584e+33
3.690000e+15,8.179113e+05,3.834441e+33
3.700000e+15,8.175060e+05,3.831863e+33
3.710000e+15,8.169713e+05,3.828547e+33
3.720000e+15,8.165203e+05,3.825789e+33
3.730000e+15,8.161356e+05,3.823105e+33
3.740000e+15,8.156117e+05,3.819830e+33
3.750000e+15,8.151716e+05,3.817109e+33
3.760000e+15,8.146920e+05,3.814056e+33
3.770000e+15,8.143122e+05,3.811568e+33
3.780000e+15,8.138017e+05,3.808342e+33
3.790000e+15,8.133856e+05,3.805532e+33
3.800000e+15,8.130159e+05,3.803079e+33
3.810000e+15,8.125161e+05,3.799895e+33
3.820000e+15,8.121004e+05,3.797264e+33
3.830000e+15,8.117505e+05,3.794706e+33
3.840000e+15,8.112608e+05,3.791562e+33
3.850000e+15,8.108551e+05,3.788968e+33
3.860000e+15,8.104093e+05,3.786044e+33
3.870000e+15,8.100636e+05,3.783681e+33
3.880000e+15,8.096396e+05,3.780788e+33
3.890000e+15,8.092036e+05,3.777903e+33
3.900000e+15,8.088674e+05,3.775575e+33
3.910000e+15,8.083999e+05,3.772520e+33
3.920000e+15,8.080170e+05,3.770015e+33
3.930000e+15,8.077001e+05,3.767583e+33
3.940000e+15,8.072420e+05,3.764568e+33
3.950000e+15,8.068684e+05,3.762100e+33
3.960000e+15,8.065607e+05,3.759705e+33
3.970000e+15,8.061121e+05,3.756729e+33
3.980000e+15,8.057476e+05,3.754298e+33
3.990000e+15,8.053424e+05,3.751539e+33
